PE UV       SUBTECH     SPECTRUM    ASCII       PEDS        4.00        
   -1
Baseline-1.Probe.asc                                                  -- Probenname
21/02/16
11:37:40.00
21/02/16
11:37:40.00
PerkinElmer Service Personnel					       -- Login User
Baseline  WTG2021						       -- Probenbeschreibung
248.000000										- Messbereich Ende (nm)
1
Lambda 1050
1050N8110302
PerkinElmer UV WinLab 6.5.0.103 / 1.61.00 Lambda 900			--UVWinLab Version / Firmware Lambda

0
0
3350/servo 1800.8/servo 820.8/4                                -- Wellenlängenbereich (glaube das macht hier keinen Sinn),Spalt NIR, Wechselpunkt Gitter, Spalt VIS
0
0
UV/VIS
1
1
1
DoublePol,CommonBeamDepol,RBeamAtt,SBeamAtt,150mm sphere / downward view, WB InGaAs Detector -- Geräteausstattung
0
0
0
0
Program
Program
3350/servo 820.8/4				-- Step 4 nm
3350/0.2 820.8/0.28             -- ....... Integrationszeit 0.28 sec
3350/0.2 820.8/0.28
0
14.50                            -- Gain InGaAs Detektor
 
 
 
0
 
820.8                             --Wechselpunkt Gitter  in nm
319.2				  				--Wechselpunkt Lampe   in nm
820.8
Front
100
on
S:100 R:100			  				--Abschwächer Sample 100%  Referenz 100%
0
0
0
0
 
0
 
 
 
0
 
 
0
0
0
0
0
 
 
 
 
0
0


0
0
#HDR
-1
-1
#GR                      --Grafikeinstellungen .... (braucht man nicht)
nm
A
1.0
0.0
2500.000000					-- Messbereich Start (warum auch immer hier unter)
-4.000000
564
8
0.001024
-0.000939
#DATA
2500.000000	0.000716
2496.000000	-0.000939
2492.000000	-0.000856
2488.000000	-0.000221
2484.000000	0.000966
2480.000000	0.000374
2476.000000	0.000684
2472.000000	0.000081
2468.000000	-0.000241
2464.000000	0.000104
2460.000000	0.000357
2456.000000	-0.000492
2452.000000	-0.000371
2448.000000	0.000316
2444.000000	-0.000335
2440.000000	0.000087
2436.000000	-0.000625
2432.000000	-0.000170
2428.000000	-0.000256
2424.000000	-0.000129
2420.000000	-0.000500
2416.000000	-0.000188
2412.000000	-0.000106
2408.000000	-0.000012
2404.000000	0.000152
2400.000000	-0.000413
2396.000000	-0.000358
2392.000000	-0.000157
2388.000000	-0.000141
2384.000000	0.000163
2380.000000	-0.000092
2376.000000	-0.000364
2372.000000	-0.000412
2368.000000	-0.000233
2364.000000	-0.000269
2360.000000	0.000050
2356.000000	-0.000151
2352.000000	-0.000211
2348.000000	-0.000280
2344.000000	-0.000251
2340.000000	-0.000290
2336.000000	-0.000209
2332.000000	-0.000317
2328.000000	-0.000344
2324.000000	-0.000253
2320.000000	-0.000111
2316.000000	-0.000111
2312.000000	-0.000113
2308.000000	-0.000234
2304.000000	-0.000168
2300.000000	-0.000318
2296.000000	-0.000198
2292.000000	-0.000321
2288.000000	-0.000261
2284.000000	-0.000118
2280.000000	-0.000152
2276.000000	-0.000207
2272.000000	-0.000253
2268.000000	-0.000234
2264.000000	-0.000271
2260.000000	-0.000249
2256.000000	-0.000112
2252.000000	-0.000119
2248.000000	-0.000007
2244.000000	-0.000281
2240.000000	-0.000230
2236.000000	-0.000020
2232.000000	-0.000121
2228.000000	-0.000148
2224.000000	-0.000178
2220.000000	-0.000104
2216.000000	-0.000037
2212.000000	-0.000190
2208.000000	-0.000190
2204.000000	-0.000104
2200.000000	-0.000021
2196.000000	-0.000145
2192.000000	-0.000127
2188.000000	-0.000143
2184.000000	-0.000222
2180.000000	-0.000178
2176.000000	-0.000112
2172.000000	-0.000056
2168.000000	-0.000129
2164.000000	-0.000192
2160.000000	-0.000134
2156.000000	-0.000138
2152.000000	-0.000070
2148.000000	-0.000169
2144.000000	-0.000009
2140.000000	-0.000067
2136.000000	-0.000029
2132.000000	-0.000087
2128.000000	-0.000148
2124.000000	-0.000151
2120.000000	-0.000192
2116.000000	-0.000216
2112.000000	-0.000004
2108.000000	-0.000079
2104.000000	-0.000011
2100.000000	-0.000133
2096.000000	-0.000043
2092.000000	-0.000066
2088.000000	-0.000095
2084.000000	-0.000009
2080.000000	-0.000112
2076.000000	-0.000029
2072.000000	-0.000089
2068.000000	-0.000163
2064.000000	-0.000203
2060.000000	-0.000078
2056.000000	-0.000029
2052.000000	-0.000091
2048.000000	0.000032
2044.000000	-0.000091
2040.000000	-0.000156
2036.000000	-0.000114
2032.000000	0.000005
2028.000000	-0.000056
2024.000000	-0.000152
2020.000000	-0.000009
2016.000000	-0.000012
2012.000000	0.000018
2008.000000	-0.000125
2004.000000	-0.000127
2000.000000	-0.000082
1996.000000	-0.000105
1992.000000	0.000090
1988.000000	0.000095
1984.000000	0.000011
1980.000000	-0.000132
1976.000000	-0.000094
1972.000000	-0.000053
1968.000000	-0.000148
1964.000000	-0.000064
1960.000000	-0.000066
1956.000000	-0.000183
1952.000000	-0.000155
1948.000000	-0.000268
1944.000000	-0.000023
1940.000000	0.000048
1936.000000	0.000036
1932.000000	0.000059
1928.000000	-0.000074
1924.000000	-0.000173
1920.000000	-0.000224
1916.000000	-0.000090
1912.000000	-0.000026
1908.000000	-0.000133
1904.000000	-0.000226
1900.000000	-0.000157
1896.000000	-0.000132
1892.000000	-0.000047
1888.000000	-0.000090
1884.000000	-0.000006
1880.000000	-0.000109
1876.000000	-0.000134
1872.000000	-0.000133
1868.000000	-0.000185
1864.000000	0.000007
1860.000000	0.000021
1856.000000	-0.000059
1852.000000	-0.000092
1848.000000	-0.000030
1844.000000	-0.000042
1840.000000	-0.000061
1836.000000	-0.000002
1832.000000	-0.000059
1828.000000	-0.000125
1824.000000	-0.000080
1820.000000	-0.000114
1816.000000	-0.000121
1812.000000	-0.000035
1808.000000	-0.000047
1804.000000	-0.000145
1800.000000	-0.000173
1796.000000	-0.000042
1792.000000	0.000080
1788.000000	-0.000004
1784.000000	-0.000187
1780.000000	-0.000083
1776.000000	0.000043
1772.000000	0.000051
1768.000000	-0.000046
1764.000000	-0.000137
1760.000000	-0.000161
1756.000000	-0.000091
1752.000000	-0.000050
1748.000000	0.000047
1744.000000	0.000028
1740.000000	-0.000056
1736.000000	-0.000069
1732.000000	-0.000092
1728.000000	0.000002
1724.000000	0.000081
1720.000000	0.000061
1716.000000	0.000021
1712.000000	-0.000045
1708.000000	-0.000008
1704.000000	0.000055
1700.000000	0.000069
1696.000000	0.000032
1692.000000	-0.000035
1688.000000	-0.000065
1684.000000	-0.000032
1680.000000	-0.000061
1676.000000	0.000092
1672.000000	0.000049
1668.000000	-0.000069
1664.000000	-0.000134
1660.000000	-0.000078
1656.000000	-0.000079
1652.000000	-0.000062
1648.000000	0.000010
1644.000000	-0.000012
1640.000000	-0.000012
1636.000000	-0.000018
1632.000000	-0.000015
1628.000000	0.000029
1624.000000	0.000083
1620.000000	-0.000023
1616.000000	-0.000089
1612.000000	-0.000052
1608.000000	-0.000005
1604.000000	-0.000039
1600.000000	-0.000035
1596.000000	-0.000040
1592.000000	-0.000159
1588.000000	-0.000185
1584.000000	-0.000076
1580.000000	-0.000073
1576.000000	-0.000114
1572.000000	-0.000043
1568.000000	0.000017
1564.000000	-0.000055
1560.000000	-0.000108
1556.000000	-0.000107
1552.000000	-0.000096
1548.000000	-0.000122
1544.000000	-0.000196
1540.000000	-0.000182
1536.000000	-0.000085
1532.000000	-0.000073
1528.000000	-0.000074
1524.000000	-0.000065
1520.000000	-0.000111
1516.000000	-0.000011
1512.000000	0.000051
1508.000000	0.000021
1504.000000	-0.000029
1500.000000	-0.000014
1496.000000	0.000044
1492.000000	-0.000098
1488.000000	-0.000111
1484.000000	-0.000027
1480.000000	-0.000149
1476.000000	-0.000135
1472.000000	-0.000118
1468.000000	-0.000121
1464.000000	-0.000023
1460.000000	-0.000029
1456.000000	0.000111
1452.000000	0.000097
1448.000000	-0.000018
1444.000000	-0.000028
1440.000000	-0.000006
1436.000000	0.000056
1432.000000	0.000056
1428.000000	-0.000098
1424.000000	-0.000153
1420.000000	-0.000041
1416.000000	0.000065
1412.000000	0.000047
1408.000000	-0.000079
1404.000000	-0.000105
1400.000000	-0.000135
1396.000000	-0.000197
1392.000000	-0.000086
1388.000000	-0.000069
1384.000000	-0.000194
1380.000000	-0.000150
1376.000000	-0.000036
1372.000000	-0.000050
1368.000000	0.000006
1364.000000	0.000019
1360.000000	-0.000030
1356.000000	-0.000035
1352.000000	-0.000127
1348.000000	-0.000107
1344.000000	-0.000050
1340.000000	-0.000055
1336.000000	-0.000005
1332.000000	0.000009
1328.000000	-0.000048
1324.000000	-0.000086
1320.000000	0.000002
1316.000000	0.000041
1312.000000	0.000047
1308.000000	-0.000128
1304.000000	-0.000104
1300.000000	-0.000018
1296.000000	-0.000016
1292.000000	-0.000135
1288.000000	-0.000133
1284.000000	-0.000084
1280.000000	0.000018
1276.000000	-0.000015
1272.000000	-0.000005
1268.000000	0.000096
1264.000000	-0.000005
1260.000000	-0.000067
1256.000000	-0.000042
1252.000000	-0.000019
1248.000000	-0.000033
1244.000000	-0.000047
1240.000000	-0.000038
1236.000000	0.000047
1232.000000	0.000034
1228.000000	-0.000000
1224.000000	0.000025
1220.000000	-0.000029
1216.000000	0.000007
1212.000000	-0.000003
1208.000000	0.000021
1204.000000	-0.000003
1200.000000	-0.000068
1196.000000	-0.000020
1192.000000	-0.000088
1188.000000	-0.000092
1184.000000	-0.000022
1180.000000	-0.000021
1176.000000	-0.000026
1172.000000	-0.000077
1168.000000	-0.000070
1164.000000	-0.000029
1160.000000	0.000035
1156.000000	0.000057
1152.000000	-0.000049
1148.000000	-0.000199
1144.000000	-0.000192
1140.000000	0.000029
1136.000000	0.000029
1132.000000	0.000028
1128.000000	-0.000030
1124.000000	-0.000062
1120.000000	0.000029
1116.000000	-0.000011
1112.000000	0.000100
1108.000000	0.000036
1104.000000	-0.000115
1100.000000	-0.000077
1096.000000	0.000003
1092.000000	-0.000002
1088.000000	-0.000139
1084.000000	-0.000038
1080.000000	0.000003
1076.000000	-0.000101
1072.000000	-0.000096
1068.000000	-0.000001
1064.000000	0.000079
1060.000000	0.000058
1056.000000	-0.000070
1052.000000	-0.000182
1048.000000	-0.000151
1044.000000	-0.000125
1040.000000	-0.000154
1036.000000	-0.000096
1032.000000	-0.000106
1028.000000	-0.000063
1024.000000	-0.000087
1020.000000	-0.000057
1016.000000	-0.000025
1012.000000	-0.000161
1008.000000	-0.000117
1004.000000	-0.000092
1000.000000	-0.000067
996.000000	-0.000077
992.000000	-0.000028
988.000000	-0.000007
984.000000	-0.000096
980.000000	-0.000201
976.000000	-0.000056
972.000000	-0.000017
968.000000	-0.000093
964.000000	-0.000036
960.000000	-0.000154
956.000000	0.000043
952.000000	-0.000006
948.000000	0.000012
944.000000	-0.000090
940.000000	-0.000026
936.000000	0.000048
932.000000	-0.000075
928.000000	0.000044
924.000000	-0.000079
920.000000	0.000025
916.000000	0.000059
912.000000	-0.000065
908.000000	-0.000128
904.000000	-0.000120
900.000000	-0.000129
896.000000	-0.000028
892.000000	0.000069
888.000000	-0.000018
884.000000	0.000006
880.000000	-0.000041
876.000000	0.000019
872.000000	-0.000036
868.000000	0.000007
864.000000	-0.000175
860.000000	-0.000036
856.000000	0.000023
852.000000	-0.000002
848.000000	-0.000068
844.000000	-0.000031
840.000000	-0.000068
836.000000	-0.000106
832.000000	-0.000173
828.000000	-0.000149
824.000000	-0.000092
820.000000	-0.000005
816.000000	-0.000560
812.000000	-0.000316
808.000000	0.000145
804.000000	-0.000005
800.000000	-0.000288
796.000000	-0.000188
792.000000	-0.000006
788.000000	0.000111
784.000000	-0.000297
780.000000	-0.000622
776.000000	-0.000212
772.000000	-0.000183
768.000000	-0.000082
764.000000	-0.000207
760.000000	-0.000426
756.000000	-0.000303
752.000000	-0.000394
748.000000	-0.000029
744.000000	0.000070
740.000000	-0.000028
736.000000	-0.000077
732.000000	-0.000509
728.000000	-0.000117
724.000000	-0.000441
720.000000	-0.000077
716.000000	0.000004
712.000000	-0.000121
708.000000	-0.000182
704.000000	-0.000312
700.000000	-0.000200
696.000000	-0.000043
692.000000	-0.000116
688.000000	-0.000151
684.000000	-0.000289
680.000000	0.000017
676.000000	-0.000109
672.000000	-0.000130
668.000000	-0.000364
664.000000	-0.000258
660.000000	-0.000114
656.000000	-0.000280
652.000000	-0.000013
648.000000	-0.000121
644.000000	-0.000227
640.000000	0.000011
636.000000	-0.000157
632.000000	-0.000171
628.000000	-0.000249
624.000000	-0.000051
620.000000	-0.000110
616.000000	-0.000041
612.000000	-0.000158
608.000000	-0.000044
604.000000	0.000042
600.000000	-0.000088
596.000000	-0.000077
592.000000	-0.000149
588.000000	-0.000211
584.000000	-0.000114
580.000000	-0.000328
576.000000	-0.000036
572.000000	-0.000074
568.000000	-0.000195
564.000000	-0.000038
560.000000	-0.000129
556.000000	-0.000127
552.000000	-0.000198
548.000000	-0.000188
544.000000	-0.000101
540.000000	-0.000198
536.000000	-0.000090
532.000000	-0.000130
528.000000	-0.000243
524.000000	-0.000190
520.000000	-0.000032
516.000000	-0.000125
512.000000	-0.000070
508.000000	-0.000144
504.000000	-0.000284
500.000000	-0.000182
496.000000	-0.000086
492.000000	-0.000718
488.000000	-0.000572
484.000000	-0.000039
480.000000	-0.000035
476.000000	0.000035
472.000000	-0.000172
468.000000	-0.000087
464.000000	-0.000175
460.000000	-0.000116
456.000000	-0.000020
452.000000	-0.000315
448.000000	-0.000194
444.000000	0.000127
440.000000	-0.000162
436.000000	-0.000173
432.000000	-0.000099
428.000000	-0.000343
424.000000	0.000049
420.000000	-0.000054
416.000000	-0.000189
412.000000	-0.000238
408.000000	0.000055
404.000000	-0.000360
400.000000	-0.000137
396.000000	0.000092
392.000000	-0.000065
388.000000	-0.000358
384.000000	-0.000109
380.000000	-0.000009
376.000000	0.000054
372.000000	-0.000448
368.000000	-0.000320
364.000000	-0.000303
360.000000	-0.000382
356.000000	0.000182
352.000000	0.000148
348.000000	-0.000014
344.000000	-0.000528
340.000000	-0.000184
336.000000	-0.000352
332.000000	0.000236
328.000000	-0.000748
324.000000	0.000053
320.000000	0.000152
316.000000	-0.000216
312.000000	0.000321
308.000000	-0.000161
304.000000	0.000185
300.000000	0.001024
296.000000	-0.000156
292.000000	0.000053
288.000000	-0.000183
284.000000	0.000459
280.000000	-0.000250
276.000000	0.000668
272.000000	-0.000487
268.000000	0.000927
264.000000	-0.000559
260.000000	-0.000599
256.000000	0.000297
252.000000	-0.000636
248.000000	-0.000559
